"Time (s)","Linear Acceleration x (m/s^2)","Linear Acceleration y (m/s^2)","Linear Acceleration z (m/s^2)","Absolute acceleration (m/s^2)"
1.808316668E-2,2.326611786E0,4.894821167E-1,8.984616394E0,9.293871470E0
2.803816670E-2,2.160307617E0,4.364923096E-1,9.192384338E0,9.452903488E0
3.799416672E-2,1.965861969E0,3.782633972E-1,9.308991852E0,9.521818407E0
4.795016674E-2,1.725611572E0,3.748205566E-1,9.345515900E0,9.510882881E0
5.790616665E-2,1.417851562E0,4.953199768E-1,9.365574188E0,9.485231932E0
6.786116667E-2,1.086740112E0,6.722520447E-1,9.373358002E0,9.460061686E0
7.781716669E-2,7.427554321E-1,8.304730225E-1,9.726324005E0,9.789931038E0
8.777316671E-2,6.673123169E-1,8.285270691E-1,1.045695465E1,1.051093066E1
9.772916674E-2,4.697232056E-1,8.725355530E-1,1.102442459E1,1.106887057E1
1.076841668E-1,2.076182556E-1,8.183482361E-1,1.113699051E1,1.116894609E1
1.176401667E-1,2.305206299E-1,5.990542603E-1,1.100930603E1,1.102800186E1
1.275961667E-1,4.352947998E-1,4.090992737E-1,1.086665268E1,1.088305951E1
1.375521667E-1,6.659651184E-1,3.610491943E-1,1.064361649E1,1.067054066E1
1.475071667E-1,8.978329468E-1,4.450245667E-1,1.035007690E1,1.039847310E1
1.574631667E-1,1.076112213E0,5.243595886E-1,1.004980133E1,1.012084370E1
1.674191667E-1,1.144519958E0,5.032534790E-1,9.777517548E0,9.857131398E0
1.773751667E-1,1.093925171E0,5.195695496E-1,9.526489563E0,9.603157199E0
1.873301667E-1,1.094972992E0,5.554948425E-1,9.325008545E0,9.405494391E0
1.972861667E-1,1.159488831E0,5.504054260E-1,9.188791809E0,9.277998458E0
2.072421667E-1,1.225351868E0,5.159770203E-1,9.178014221E0,9.273816072E0
2.171981668E-1,1.226549377E0,4.927752686E-1,9.236243134E0,9.330350372E0
2.271531667E-1,1.110390930E0,4.173321533E-1,9.347162476E0,9.422132481E0
2.371091667E-1,1.003363495E0,3.661386108E-1,9.465715942E0,9.525784697E0
2.470649583E-1,8.788224792E-1,3.483256531E-1,9.643845520E0,9.690067911E0
2.570209584E-1,7.574249268E-1,2.826123047E-1,9.766590271E0,9.799992232E0
2.669769584E-1,6.584806824E-1,2.406994629E-1,9.848170624E0,9.873094635E0
2.769319584E-1,5.839356995E-1,2.115101624E-1,9.848170624E0,9.867734395E0
2.868879584E-1,6.051914978E-1,1.884580994E-1,9.782606964E0,9.803120535E0
2.968439583E-1,6.649172974E-1,1.645079041E-1,9.782008209E0,9.805960558E0
3.067999583E-1,6.887178040E-1,9.355545044E-2,9.796827393E0,9.821451613E0
3.167549584E-1,6.731501770E-1,1.526824951E-2,9.834399261E0,9.857422235E0
3.267109584E-1,5.155279541E-1,3.936813354E-2,9.856852570E0,9.870403310E0
3.366669584E-1,3.594026184E-1,1.143621826E-1,9.800719299E0,9.807973681E0
3.466229584E-1,2.188449097E-1,8.173004150E-2,9.890382843E0,9.893141345E0
3.565779583E-1,5.763015747E-2,-2.140548706E-1,1.014215927E1,1.014458158E1
3.665339584E-1,-5.284011841E-2,-4.586462402E-1,1.019709503E1,1.020754111E1
3.764899584E-1,-5.718109131E-2,-5.493576050E-1,1.011237122E1,1.012744366E1
3.864459584E-1,3.891906738E-3,-5.945635986E-1,1.011192215E1,1.012938747E1
3.964009584E-1,3.787124634E-2,-6.500981140E-1,1.010488678E1,1.012584804E1
4.063569583E-1,-2.903961182E-2,-7.283853149E-1,1.007030869E1,1.009665813E1
4.163129583E-1,-8.307723999E-2,-7.734416199E-1,1.003213806E1,1.006225163E1
4.262689584E-1,-9.714797974E-2,-8.039781189E-1,1.000384689E1,1.003657169E1
4.362239584E-1,-9.849517822E-2,-7.737409973E-1,9.913584595E0,9.944221234E0
4.461799584E-1,-1.447489929E-1,-7.177574158E-1,9.727371826E0,9.754890600E0
4.561359583E-1,-1.338217163E-1,-6.457571411E-1,9.560468903E0,9.583187162E0
4.660919583E-1,-7.933502197E-2,-5.929170227E-1,9.472302246E0,9.491172450E0
4.760469584E-1,-3.667373657E-2,-5.586383057E-1,9.493857422E0,9.510349650E0
4.860029584E-1,-4.805007935E-2,-5.429209900E-1,9.585616608E0,9.601099820E0
4.959589584E-1,-8.442443848E-2,-5.430706787E-1,9.704020386E0,9.719571230E0
5.059149584E-1,-1.191522217E-1,-5.090913391E-1,9.757159882E0,9.771158590E0
5.158699583E-1,-1.528321838E-1,-5.101391602E-1,9.732012177E0,9.746571738E0
5.258259583E-1,-1.588197327E-1,-4.981640625E-1,9.711953888E0,9.726018685E0
5.357819584E-1,-1.788780212E-1,-4.948709106E-1,9.707912292E0,9.722163115E0
5.457379584E-1,-2.284249878E-1,-5.251080322E-1,9.747579803E0,9.764385718E0
5.556929584E-1,-2.712359619E-1,-5.189707947E-1,9.798623657E0,9.816105399E0
5.656489583E-1,-2.770738220E-1,-4.716691589E-1,9.859546967E0,9.874710532E0
5.756049583E-1,-3.082090759E-1,-3.993695068E-1,9.935139771E0,9.947939038E0
5.855609584E-1,-3.829037476E-1,-3.589535522E-1,9.940678253E0,9.954523950E0
5.955159584E-1,-4.649331665E-1,-3.842509460E-1,9.928852844E0,9.947156902E0
6.054719584E-1,-5.882766724E-1,-4.644841003E-1,9.848619690E0,9.877101028E0
6.154279584E-1,-6.444099426E-1,-5.381309509E-1,9.717941437E0,9.754139371E0
6.253839583E-1,-5.447172546E-1,-5.755531311E-1,9.658515015E0,9.690969538E0
6.353389584E-1,-4.222718811E-1,-5.367837524E-1,9.659562836E0,9.683677221E0
6.452949584E-1,-2.897973633E-1,-4.529580688E-1,9.704319763E0,9.719206531E0
6.552509584E-1,-2.404000854E-1,-4.179309082E-1,9.765841827E0,9.777736192E0
6.652069584E-1,-2.703378296E-1,-4.098477173E-1,9.774972839E0,9.787295423E0
6.751619583E-1,-3.564088440E-1,-4.451742554E-1,9.710457001E0,9.727187802E0
6.851179583E-1,-4.032614136E-1,-4.764591980E-1,9.617350616E0,9.637586109E0
6.950739584E-1,-3.763174438E-1,-4.863386536E-1,9.602980499E0,9.622649041E0
7.050299584E-1,-2.833607483E-1,-5.132826233E-1,9.658515015E0,9.676293952E0
7.149859584E-1,-2.040257263E-1,-5.162763977E-1,9.766141205E0,9.781905839E0
7.249409583E-1,-1.811233521E-1,-5.272036743E-1,9.856253815E0,9.872005300E0
7.348969583E-1,-1.993853760E-1,-5.647755432E-1,9.881551208E0,9.899685865E0
7.448529584E-1,-2.315684509E-1,-6.068380737E-1,9.860295410E0,9.881664939E0
7.548089584E-1,-2.722837830E-1,-6.489006042E-1,9.808802490E0,9.834013257E0
7.647639584E-1,-2.383044434E-1,-6.643185425E-1,9.767338715E0,9.792804180E0
7.747199584E-1,-2.260299683E-1,-6.517446899E-1,9.773775330E0,9.798088838E0
7.846759583E-1,-2.345622253E-1,-6.409671021E-1,9.844428406E0,9.868061051E0
7.946319584E-1,-2.451901245E-1,-5.803431702E-1,9.900561676E0,9.920586570E0
8.045869584E-1,-3.056643677E-1,-5.254074097E-1,9.961185608E0,9.979714543E0
8.145429584E-1,-4.073030090E-1,-5.001100159E-1,9.981094208E0,1.000191218E1
8.244989584E-1,-4.257147217E-1,-5.008584595E-1,9.977801056E0,9.999430290E0
8.344549583E-1,-4.245172119E-1,-5.192701721E-1,9.987381134E0,1.000987704E1
8.444099583E-1,-3.914360046E-1,-5.655239868E-1,1.000624191E1,1.002985128E1
8.543659584E-1,-3.465293884E-1,-5.897735596E-1,1.000758911E1,1.003093990E1
8.643219584E-1,-2.833607483E-1,-5.499563599E-1,1.002674927E1,1.004581735E1
8.742779584E-1,-2.264790344E-1,-4.848417664E-1,1.001237915E1,1.002666946E1
8.842329584E-1,-1.963916016E-1,-4.561015320E-1,9.969119110E0,9.981479555E0
8.941889583E-1,-2.168989563E-1,-4.252656555E-1,9.927805023E0,9.939276061E0
9.041449584E-1,-2.366578674E-1,-4.194277954E-1,9.880503387E0,9.892233004E0
9.141009584E-1,-2.977308655E-1,-4.781057739E-1,9.811945953E0,9.828098096E0
9.240559584E-1,-3.417393494E-1,-4.728666687E-1,9.798923035E0,9.816276346E0
9.340119584E-1,-3.573069763E-1,-4.722679138E-1,9.826765137E0,9.844593354E0
9.439679583E-1,-3.288661194E-1,-4.331991577E-1,9.888287201E0,9.903233725E0
9.539239584E-1,-2.565664673E-1,-3.878434753E-1,9.968819733E0,9.979660103E0
9.638789584E-1,-2.439926147E-1,-3.727249146E-1,1.006012985E1,1.006998853E1
9.738349584E-1,-2.899470520E-1,-3.496728516E-1,1.009979736E1,1.011000728E1
9.837909584E-1,-3.197351074E-1,-3.255729675E-1,1.011027557E1,1.012056819E1
9.937469583E-1,-3.297642517E-1,-2.914439392E-1,1.014485367E1,1.015439511E1
1.003701958E0,-3.314108276E-1,-3.273692322E-1,1.015308655E1,1.016376752E1
1.013657958E0,-3.520678711E-1,-4.001179504E-1,1.011401779E1,1.012805026E1
1.023613958E0,-2.930905151E-1,-4.733157349E-1,1.002165985E1,1.003711094E1
1.033569958E0,-2.089654541E-1,-4.396357727E-1,1.004830444E1,1.006008789E1
1.043524958E0,-1.594184875E-1,-3.487747192E-1,1.015458344E1,1.016182182E1
1.053480958E0,-1.484912109E-1,-2.776725769E-1,1.029259644E1,1.029741196E1
1.063436958E0,-1.764830017E-1,-2.206411743E-1,1.050440598E1,1.050820506E1
1.073392958E0,-2.493814087E-1,-1.996847534E-1,1.067205734E1,1.067683816E1
1.083347958E0,-3.418890381E-1,-2.173480225E-1,1.072369995E1,1.073134982E1
1.093303958E0,-3.927832031E-1,-2.510279846E-1,1.073552536E1,1.074564090E1
1.103259958E0,-3.999682617E-1,-2.595602417E-1,1.074001602E1,1.075059488E1
1.113215958E0,-3.983216858E-1,-2.670446777E-1,1.071935898E1,1.073008061E1
1.123170958E0,-3.945794678E-1,-2.329156494E-1,1.073762100E1,1.074739259E1
1.133126958E0,-3.534150696E-1,-1.871109009E-1,1.075064392E1,1.075807870E1
1.143082958E0,-2.707868958E-1,-1.588197327E-1,1.076426559E1,1.076884223E1
1.153038958E0,-1.922003174E-1,-1.387614441E-1,1.078582077E1,1.078842553E1
1.162993958E0,-1.402583313E-1,-1.728904724E-1,1.075303894E1,1.075534332E1
1.172949958E0,-8.652008057E-2,-1.823208618E-1,1.072130493E1,1.072320409E1
1.182905958E0,-5.298980713E-2,-1.633103943E-1,1.068657715E1,1.068795628E1
1.192861958E0,-7.484436035E-2,-1.528321838E-1,1.064661026E1,1.064797020E1
1.202816958E0,-1.014889526E-1,-1.213975525E-1,1.063283890E1,1.063401619E1
1.212772958E0,-1.544787598E-1,-9.535171509E-2,1.056248520E1,1.056404512E1
1.222728958E0,-1.764830017E-1,-8.187973022E-2,1.053703812E1,1.053883403E1
1.232684958E0,-1.916015625E-1,-8.592132568E-2,1.052536240E1,1.052745683E1
1.242639958E0,-1.969903564E-1,-7.214996338E-2,1.053599030E1,1.053807868E1
1.252596292E0,-2.046244812E-1,-4.101470947E-2,1.054467224E1,1.054673722E1
1.262552292E0,-2.206411743E-1,-4.490661621E-4,1.055305481E1,1.055536113E1
1.272508292E0,-2.032772827E-1,5.673202515E-2,1.054916290E1,1.055127377E1
1.282463292E0,-1.902543640E-1,1.007405090E-1,1.053045181E1,1.053265212E1
1.292419292E0,-1.927990723E-1,9.804611206E-2,1.056922119E1,1.057143420E1
1.302375292E0,-1.553768921E-1,1.199006653E-1,1.062909668E1,1.063090845E1
1.312331292E0,-1.251397705E-1,1.305285645E-1,1.068522995E1,1.068675988E1
1.322286292E0,-1.279838562E-1,1.219963074E-1,1.078073135E1,1.078218120E1
1.332242292E0,-1.438508606E-1,1.204994202E-1,1.085901855E1,1.086063981E1
1.342198292E0,-1.895059204E-1,1.475930786E-1,1.093955109E1,1.094218782E1
1.352154292E0,-2.960842896E-1,1.646575928E-1,1.098475708E1,1.098998026E1
1.362109292E0,-4.070036316E-1,1.830693054E-1,1.097158447E1,1.098065718E1
1.372065292E0,-4.320016479E-1,1.725910950E-1,1.090781708E1,1.091773266E1
1.382021292E0,-4.126918030E-1,1.812730408E-1,1.082249451E1,1.083187711E1
1.391977292E0,-3.893403625E-1,1.892065430E-1,1.069211563E1,1.070087481E1
1.401932292E0,-3.679348755E-1,2.011816406E-1,1.061173279E1,1.062001520E1
1.411888292E0,-3.332070923E-1,2.200424194E-1,1.053299652E1,1.054056267E1
1.421844292E0,-3.483256531E-1,2.269281006E-1,1.044243484E1,1.045070680E1
1.431800292E0,-3.682342529E-1,2.393522644E-1,1.036055511E1,1.036985961E1
1.441755292E0,-3.537144470E-1,2.508782959E-1,1.028481262E1,1.029395087E1
1.451711292E0,-2.733316040E-1,2.294728088E-1,1.022688309E1,1.023310831E1
1.461667292E0,-1.986369324E-1,2.151026917E-1,1.015143997E1,1.015566144E1
1.471623292E0,-1.175056458E-1,1.706451416E-1,1.011596375E1,1.011808528E1
1.481578292E0,7.334747314E-3,2.251318359E-1,1.015383499E1,1.015633316E1
1.491534292E0,1.422042847E-1,3.261717224E-1,1.033241364E1,1.033853866E1
1.501490292E0,2.227368164E-1,3.941304016E-1,1.047147446E1,1.048125602E1
1.511446292E0,2.468367004E-1,4.317022705E-1,1.053733749E1,1.054906520E1
1.521401292E0,1.966909790E-1,4.990621948E-1,1.051248917E1,1.052616639E1
1.531357292E0,1.956431580E-1,5.749543762E-1,1.036250107E1,1.038028310E1
1.541313292E0,2.170486450E-1,6.794371033E-1,1.004441254E1,1.006970546E1
1.551269292E0,2.739303589E-1,6.590794373E-1,9.721084900E0,9.747251673E0
1.561224292E0,3.565585327E-1,5.522016907E-1,9.622290344E0,9.644715245E0
1.571180292E0,4.257147217E-1,5.072950745E-1,9.687704315E0,9.710313909E0
1.581136292E0,5.001100159E-1,5.137316895E-1,9.805659027E0,9.831834988E0
1.591092292E0,4.574487305E-1,5.322930908E-1,9.815688171E0,9.840748424E0
1.601047292E0,2.624043274E-1,5.508544922E-1,9.546398163E0,9.565877617E0
1.611003292E0,1.429527283E-1,6.692582703E-1,9.177116089E0,9.202597558E0
1.620959292E0,-8.893006897E-1,1.034947815E0,1.022074585E1,1.031143144E1
1.630915292E0,-2.022893372E0,2.647993469E-1,1.148456772E1,1.166436933E1
1.640870292E0,-1.014290771E0,-1.920955353E0,1.186268143E1,1.205993640E1
1.650826292E0,-2.290237427E-2,-1.705702972E0,1.272428970E1,1.283812664E1
1.660782292E0,-1.077309723E0,-3.513194275E-1,1.319685699E1,1.324541642E1
1.670738292E0,-1.179547119E0,8.640032959E-1,1.212299011E1,1.221084446E1
1.680693292E0,-3.135978699E-1,1.542691956E0,1.166359543E1,1.176935429E1
1.690649292E0,1.191222839E0,9.249266052E-1,1.185160446E1,1.194717663E1
1.700605292E0,1.921703796E0,2.137554932E-1,1.184516785E1,1.200194310E1
1.710561292E0,-1.380728760E0,-1.950444031E-1,1.333546875E1,1.340817590E1
1.720516292E0,-3.996090088E0,-3.209326172E-1,1.479957413E1,1.533294258E1
1.730472292E0,-2.683320007E0,2.615061951E-1,1.226235031E1,1.255523106E1
1.740428292E0,-9.403445435E-1,1.917213135E0,8.857830048E0,9.111591915E0
1.750384292E0,1.317260742E-2,1.476978607E0,7.653135223E0,7.794364507E0
1.760339292E0,7.735913086E-1,1.748364258E0,7.053182831E0,7.307708884E0
1.770295292E0,5.234614563E-1,2.264640656E0,7.538024597E0,7.888245941E0
1.780251292E0,4.534071350E-1,2.595452728E0,7.786657562E0,8.220339950E0
1.790207292E0,9.786648560E-1,2.689756622E0,6.771768036E0,7.351830923E0
1.800162292E0,7.722441101E-1,3.072959747E0,6.419400787E0,7.158781254E0
1.810118292E0,8.361611938E-1,3.337010651E0,6.506519623E0,7.360000219E0
1.820074292E0,1.145867157E0,2.939437408E0,6.503076782E0,7.227953476E0
1.830030292E0,1.105900269E0,2.410437469E0,7.010521545E0,7.495374343E0
1.839985292E0,8.265811157E-1,1.975292358E0,7.952662354E0,8.235888219E0
1.849941292E0,4.897814941E-1,1.681303711E0,8.840615845E0,9.012389061E0
1.859897292E0,2.013313293E-1,1.240919495E0,9.604926453E0,9.686848180E0
1.869853292E0,-7.738906860E-2,1.073717194E0,1.009081604E1,1.014807499E1
1.879808292E0,-3.032693481E-1,1.397643585E0,1.018646713E1,1.028637412E1
1.889764292E0,-3.444337463E-1,1.770218811E0,9.940378876E0,1.010264527E1
1.899720292E0,-2.851570129E-1,1.838925934E0,9.507329407E0,9.687738413E0
1.909676292E0,-6.066883850E-1,1.872605896E0,9.335337067E0,9.540610137E0
1.919631292E0,-9.756710815E-1,1.913171539E0,9.388626251E0,9.631119472E0
1.929587292E0,-1.100661163E0,1.822160797E0,9.605824585E0,9.838881589E0
1.939543292E0,-1.111588440E0,1.675465851E0,9.797126770E0,1.000132529E1
1.949499292E0,-9.898915100E-1,1.451980591E0,9.786199493E0,9.942727662E0
1.959454292E0,-7.976911926E-1,1.287622375E0,9.554481354E0,9.673799489E0
1.969410292E0,-5.165757751E-1,1.358574829E0,9.016649780E0,9.133047101E0
1.979366292E0,-1.345701599E-1,1.483265533E0,8.432714081E0,8.563226760E0
1.989321292E0,3.782633972E-1,1.560055847E0,8.262068939E0,8.416569408E0
1.999277292E0,9.764195251E-1,1.745669861E0,7.415130157E0,7.680163644E0
2.009233292E0,1.095272369E0,1.789528656E0,7.154821472E0,7.456105195E0
2.019189292E0,1.077609100E0,2.033820648E0,7.257058868E0,7.613315390E0
2.029145292E0,1.108594666E0,1.943558350E0,8.453371124E0,8.744477375E0
2.039100292E0,6.649172974E-1,1.281634827E0,9.916877747E0,1.002143538E1
2.049056292E0,1.330732727E-1,1.092727661E-1,1.124162292E1,1.124294156E1
2.059012292E0,-6.900650024E-2,2.716850281E-1,1.199350937E1,1.199678464E1
2.068967292E0,-6.448590088E-1,1.491348724E0,1.178229858E1,1.189380192E1
2.078923292E0,-1.108744354E0,2.180665283E0,1.062280975E1,1.090085786E1
2.088879292E0,-1.032552795E0,2.416724396E0,9.353150024E0,9.715355756E0
2.098835292E0,-7.285350037E-1,2.799927521E0,8.409662018E0,8.893411754E0
2.108790292E0,-8.762777710E-1,3.449277191E0,7.783065033E0,8.558123461E0
2.118746292E0,-1.121318207E0,3.660637665E0,7.322472839E0,8.262943248E0
2.128702292E0,-1.150507507E0,3.744463348E0,7.085814972E0,8.096508328E0
2.138658292E0,-9.849517822E-1,4.057163086E0,6.934629364E0,8.094429364E0
2.148613292E0,-5.465135193E-1,4.491859131E0,6.791826324E0,8.161150673E0
2.158569292E0,4.101470947E-2,4.722828827E0,6.466702423E0,8.007810847E0
2.168525292E0,-1.248403931E-1,4.647535400E0,6.604865112E0,8.077091901E0
2.178481292E0,-5.650749207E-1,4.732857971E0,7.067403259E0,8.524520108E0
2.188436292E0,-9.367520142E-1,4.958139496E0,7.453899536E0,9.001181583E0
2.198392292E0,-1.132395172E0,5.116959229E0,7.692653046E0,9.308195392E0
2.208348292E0,-1.253343658E0,4.695884857E0,7.869884491E0,9.249718202E0
2.218304292E0,-1.083746338E0,5.295537872E0,7.896080017E0,9.568976284E0
2.228259292E0,-6.478527832E-1,5.533692627E0,8.902736664E0,1.050238961E1
2.238215292E0,-5.777984619E-2,5.096152496E0,1.000489471E1,1.122818004E1
2.248171292E0,1.637594604E-1,4.874014435E0,1.075543396E1,1.180941123E1
2.258127292E0,-4.822970581E-1,4.375251617E0,1.067056046E1,1.154280285E1
2.268082292E0,-1.715133362E0,3.902684326E0,9.798623657E0,1.068576871E1
2.278038292E0,-2.571352844E0,3.852837982E0,8.553812256E0,9.727482720E0
2.287994292E0,-2.708168335E0,4.106410675E0,7.392676849E0,8.879665273E0
2.297950292E0,-2.356100464E0,4.366719360E0,6.664590912E0,8.308803728E0
2.307905292E0,-1.774110718E0,4.643793182E0,6.614894257E0,8.274606334E0
2.317861292E0,-9.859996033E-1,4.547842712E0,7.028933258E0,8.429766978E0
2.327817292E0,-2.588117981E-1,3.922293549E0,7.420818329E0,8.397613643E0
2.337773292E0,1.242416382E-2,3.298989716E0,7.482939148E0,8.177888835E0
2.347728292E0,-2.469863892E-2,3.188070374E0,7.167545013E0,7.844622633E0
2.357684292E0,5.179229736E-2,3.437002716E0,6.392456818E0,7.258042042E0
2.367640292E0,3.088078308E-1,3.796255646E0,5.611081696E0,6.781678037E0
2.377596292E0,3.032693481E-1,3.840114441E0,4.768783264E0,6.130232054E0
2.387551292E0,-4.664300537E-1,3.728296967E0,3.855382690E0,5.383468302E0
2.397507292E0,-1.050814819E0,3.618724823E0,3.767814789E0,5.328771848E0
2.407463292E0,-1.159788208E0,3.470532990E0,4.372407532E0,5.701548521E0
2.417419292E0,-1.212478638E0,3.497476959E0,5.376369781E0,6.527465171E0
2.427374292E0,-8.870553589E-1,3.757186890E0,6.424490204E0,7.495158098E0
2.437330292E0,-3.891906738E-2,4.144132233E0,7.480843506E0,8.552097182E0
2.447286292E0,7.720944214E-1,4.688400421E0,8.464298401E0,9.706779884E0
2.457242292E0,9.267228699E-1,5.202730865E0,9.100475464E0,1.052358672E1
2.467197292E0,2.375559998E-1,5.150040436E0,9.403894501E0,1.072439188E1
2.477153292E0,-8.592132568E-1,5.094805298E0,1.015353561E1,1.139252272E1
2.487109292E0,-7.102729797E-1,5.788612518E0,1.243464203E1,1.373436729E1
2.497064292E0,9.346563721E-1,7.202572174E0,1.652144348E1,1.804740212E1
2.507020292E0,3.092419281E0,9.169032898E0,2.050945038E1,2.267756107E1
2.516976292E0,4.394411774E0,1.063523392E1,2.292123505E1,2.564765236E1
2.526932292E0,3.594924316E0,1.087024521E1,2.281645294E1,2.552795011E1
2.536887292E0,1.109792175E0,1.022448807E1,2.135489227E1,2.370238846E1
2.546843292E0,-1.138233032E0,8.889114990E0,1.973795471E1,2.167714917E1
2.556799292E0,-2.244582367E0,7.682025146E0,1.805695038E1,1.975107889E1
2.566755292E0,-2.781366119E0,7.510182495E0,1.663026718E1,1.845818586E1
2.576710292E0,-3.127147064E0,7.940687256E0,1.480271759E1,1.708666178E1
2.586666292E0,-3.353027344E0,8.468489685E0,1.307126816E1,1.593160887E1
2.596622292E0,-3.134781189E0,8.976383514E0,1.196716415E1,1.528448010E1
2.606578292E0,-2.809058533E0,8.954978027E0,1.059751236E1,1.415590723E1
2.616533292E0,-2.864293671E0,8.619974670E0,8.747509460E0,1.261059330E1
2.626489292E0,-2.519710236E0,8.527317352E0,7.230863342E0,1.146077945E1
2.636445292E0,-1.437909851E0,8.381520538E0,6.477030945E0,1.068968667E1
2.646401292E0,1.113684082E-1,7.917784882E0,6.425687714E0,1.019770479E1
2.656356292E0,1.563798065E0,7.344327393E0,6.667434998E0,1.004187725E1
2.666312292E0,2.391576691E0,6.764582977E0,7.112160187E0,1.010257613E1
2.676268292E0,2.745141449E0,6.059399414E0,6.951244812E0,9.621430625E0
2.686224292E0,2.788251801E0,5.220843201E0,6.057004395E0,8.468698487E0
2.696179292E0,2.619253235E0,4.328249359E0,4.790787506E0,6.967486990E0
2.706135292E0,2.171983337E0,3.403921509E0,3.582949219E0,5.398306990E0
2.716091292E0,1.334624634E0,2.329006805E0,2.881507874E0,3.938093858E0
2.726047292E0,6.358776855E-1,1.265468445E0,2.785407715E0,3.124779505E0
